nm,A
300.00,0.086
301.00,0.086
302.00,0.082
303.00,0.085
304.00,0.075
305.00,0.087
306.00,0.076
307.00,0.074
308.00,0.073
309.00,0.060
310.00,0.060
311.00,0.059
312.00,0.054
313.00,0.065
314.00,0.059
315.00,0.061
316.00,0.062
317.00,0.050
318.00,0.050
319.00,0.064
320.00,0.047
321.00,0.051
322.00,0.057
323.00,0.044
324.00,0.047
325.00,0.047
326.00,0.045
327.00,0.042
328.00,0.054
329.00,0.038
330.00,0.047
331.00,0.044
332.00,0.042
333.00,0.051
334.00,0.040
335.00,0.030
336.00,0.031
337.00,0.042
338.00,0.024
339.00,0.038
340.00,0.042
341.00,0.043
342.00,0.037
343.00,0.033
344.00,0.038
345.00,0.030
346.00,0.026
347.00,0.039
348.00,0.032
349.00,0.030
350.00,0.027
351.00,0.030
352.00,0.028
353.00,0.027
354.00,0.031
355.00,0.031
356.00,0.024
357.00,0.032
358.00,0.026
359.00,0.021
360.00,0.022
361.00,0.008
362.00,0.026
363.00,0.018
364.00,0.027
365.00,0.016
366.00,0.019
367.00,0.024
368.00,0.020
369.00,0.027
370.00,0.025
371.00,0.027
372.00,0.021
373.00,0.028
374.00,0.018
375.00,0.018
376.00,0.025
377.00,0.016
378.00,0.013
379.00,0.018
380.00,0.030
381.00,0.026
382.00,0.022
383.00,0.021
384.00,0.021
385.00,0.015
386.00,0.021
387.00,0.019
388.00,0.017
389.00,0.018
390.00,0.016
391.00,0.016
392.00,0.021
393.00,0.016
394.00,0.015
395.00,0.021
396.00,0.012
397.00,0.017
398.00,0.020
399.00,0.011
400.00,0.017
401.00,0.022
402.00,0.018
403.00,0.019
404.00,0.008
405.00,0.018
406.00,0.024
407.00,0.015
408.00,0.016
409.00,0.005
410.00,0.011
411.00,0.006
412.00,0.009
413.00,0.007
414.00,0.014
415.00,0.010
416.00,0.013
417.00,0.017
418.00,0.011
419.00,0.021
420.00,0.014
421.00,0.016
422.00,0.009
423.00,0.009
424.00,0.010
425.00,0.008
426.00,0.011
427.00,0.010
428.00,0.009
429.00,0.010
430.00,0.014
431.00,0.016
432.00,0.005
433.00,0.005
434.00,0.011
435.00,0.010
436.00,0.013
437.00,0.001
438.00,0.015
439.00,0.002
440.00,0.004
441.00,0.007
442.00,0.014
443.00,0.010
444.00,0.012
445.00,0.002
446.00,0.010
447.00,0.009
448.00,0.009
449.00,0.010
450.00,0.009
451.00,0.016
452.00,-0.002
453.00,0.001
454.00,0.007
455.00,0.005
456.00,0.007
457.00,0.003
458.00,0.015
459.00,0.006
460.00,0.006
461.00,0.013
462.00,0.012
463.00,-0.002
464.00,0.004
465.00,0.009
466.00,0.014
467.00,0.013
468.00,0.014
469.00,0.002
470.00,0.009
471.00,0.003
472.00,0.006
473.00,0.011
474.00,0.001
475.00,0.011
476.00,0.007
477.00,0.009
478.00,0.005
479.00,0.007
480.00,0.007
481.00,0.009
482.00,0.009
483.00,0.014
484.00,0.003
485.00,0.012
486.00,0.011
487.00,0.007
488.00,0.005
489.00,0.010
490.00,0.006
491.00,0.011
492.00,0.010
493.00,0.006
494.00,0.013
495.00,0.010
496.00,0.012
497.00,0.003
498.00,0.016
499.00,0.008
500.00,0.011
501.00,0.011
502.00,0.010
503.00,0.009
504.00,0.013
505.00,0.011
506.00,0.008
507.00,0.011
508.00,0.011
509.00,0.011
510.00,0.012
511.00,0.008
512.00,0.010
513.00,0.015
514.00,0.008
515.00,0.011
516.00,0.006
517.00,0.010
518.00,0.004
519.00,0.014
520.00,0.008
521.00,0.008
522.00,0.008
523.00,0.006
524.00,0.010
525.00,0.011
526.00,0.005
527.00,0.008
528.00,0.011
529.00,0.011
530.00,0.006
531.00,0.013
532.00,0.008
533.00,0.007
534.00,0.005
535.00,0.006
536.00,0.010
537.00,0.008
538.00,0.007
539.00,0.007
540.00,0.012
541.00,0.007
542.00,0.005
543.00,0.012
544.00,0.009
545.00,0.006
546.00,0.009
547.00,0.006
548.00,0.013
549.00,0.003
550.00,0.012
551.00,0.013
552.00,0.013
553.00,0.012
554.00,0.013
555.00,0.009
556.00,0.010
557.00,0.011
558.00,0.009
559.00,0.009
560.00,0.009
561.00,0.013
562.00,0.010
563.00,0.009
564.00,0.011
565.00,0.010
566.00,0.014
567.00,0.012
568.00,0.012
569.00,0.012
570.00,0.013
571.00,0.015
572.00,0.014
573.00,0.011
574.00,0.017
575.00,0.017
576.00,0.010
577.00,0.010
578.00,0.016
579.00,0.015
580.00,0.015
581.00,0.016
582.00,0.014
583.00,0.019
584.00,0.019
585.00,0.023
586.00,0.019
587.00,0.020
588.00,0.017
589.00,0.017
590.00,0.021
591.00,0.021
592.00,0.025
593.00,0.024
594.00,0.025
595.00,0.023
596.00,0.026
597.00,0.024
598.00,0.025
599.00,0.030
600.00,0.026
601.00,0.027
602.00,0.029
603.00,0.029
604.00,0.032
605.00,0.027
606.00,0.029
607.00,0.030
608.00,0.030
609.00,0.033
610.00,0.028
611.00,0.034
612.00,0.031
613.00,0.031
614.00,0.036
615.00,0.031
616.00,0.032
617.00,0.034
618.00,0.038
619.00,0.032
620.00,0.034
621.00,0.036
622.00,0.037
623.00,0.035
624.00,0.037
625.00,0.039
626.00,0.038
627.00,0.033
628.00,0.037
629.00,0.037
630.00,0.041
631.00,0.040
632.00,0.040
633.00,0.041
634.00,0.037
635.00,0.042
636.00,0.043
637.00,0.043
638.00,0.040
639.00,0.043
640.00,0.044
641.00,0.047
642.00,0.048
643.00,0.048
644.00,0.049
645.00,0.050
646.00,0.052
647.00,0.050
648.00,0.053
649.00,0.051
650.00,0.053
651.00,0.057
652.00,0.055
653.00,0.054
654.00,0.054
655.00,0.058
656.00,0.060
657.00,0.058
658.00,0.058
659.00,0.059
660.00,0.060
661.00,0.061
662.00,0.060
663.00,0.061
664.00,0.060
665.00,0.061
666.00,0.060
667.00,0.058
668.00,0.057
669.00,0.060
670.00,0.054
671.00,0.056
672.00,0.054
673.00,0.051
674.00,0.052
675.00,0.047
676.00,0.046
677.00,0.041
678.00,0.040
679.00,0.037
680.00,0.034
681.00,0.034
682.00,0.029
683.00,0.027
684.00,0.026
685.00,0.025
686.00,0.020
687.00,0.020
688.00,0.016
689.00,0.014
690.00,0.014
691.00,0.013
692.00,0.010
693.00,0.009
694.00,0.009
695.00,0.009
696.00,0.005
697.00,0.005
698.00,0.005
699.00,0.004
700.00,0.000
701.00,0.003
702.00,0.000
703.00,-0.001
704.00,-0.001
705.00,-0.001
706.00,-0.001
707.00,-0.001
708.00,-0.001
709.00,-0.004
710.00,0.000
711.00,0.000
712.00,-0.003
713.00,-0.004
714.00,-0.004
715.00,-0.003
716.00,-0.003
717.00,-0.002
718.00,-0.003
719.00,-0.004
720.00,-0.005
721.00,-0.003
722.00,-0.003
723.00,-0.003
724.00,-0.003
725.00,-0.004
726.00,-0.003
727.00,-0.004
728.00,-0.003
729.00,-0.004
730.00,-0.003
731.00,-0.001
732.00,-0.003
733.00,-0.003
734.00,-0.004
735.00,-0.004
736.00,-0.003
737.00,-0.004
738.00,-0.003
739.00,-0.003
740.00,-0.004
741.00,-0.003
742.00,-0.004
743.00,-0.003
744.00,-0.004
745.00,-0.001
746.00,-0.003
747.00,-0.005
748.00,-0.004
749.00,0.000
750.00,-0.002
751.00,-0.003
752.00,-0.002
753.00,-0.001
754.00,-0.001
755.00,-0.004
756.00,-0.003
757.00,-0.003
758.00,-0.001
759.00,0.000
760.00,-0.002
761.00,-0.002
762.00,-0.001
763.00,-0.002
764.00,-0.002
765.00,-0.001
766.00,-0.001
767.00,-0.001
768.00,-0.002
769.00,-0.001
770.00,-0.003
771.00,-0.002
772.00,-0.004
773.00,-0.003
774.00,0.000
775.00,-0.004
776.00,-0.001
777.00,0.000
778.00,-0.001
779.00,0.000
780.00,-0.002
781.00,0.000
782.00,-0.001
783.00,-0.001
784.00,0.000
785.00,-0.002
786.00,0.000
787.00,-0.002
788.00,0.001
789.00,0.000
790.00,-0.001
791.00,0.000
792.00,-0.001
793.00,0.001
794.00,0.001
795.00,-0.001
796.00,-0.001
797.00,0.001
798.00,0.000
799.00,-0.001
800.00,0.001
