Batch	scan010
EV300 164202	100%T Baseline Correction
90-1 Cycle01	2025/10/23 06:17:26¤U¤È
nm	A
300.00	0.026
301.00	0.034
302.00	0.019
303.00	0.029
304.00	0.025
305.00	0.030
306.00	0.035
307.00	0.031
308.00	0.019
309.00	0.012
310.00	0.020
311.00	0.014
312.00	0.006
313.00	0.014
314.00	0.015
315.00	0.017
316.00	0.023
317.00	0.022
318.00	0.011
319.00	0.019
320.00	0.020
321.00	0.012
322.00	0.019
323.00	0.010
324.00	0.015
325.00	0.016
326.00	0.005
327.00	0.010
328.00	0.025
329.00	0.012
330.00	0.020
331.00	0.018
332.00	0.012
333.00	0.021
334.00	0.006
335.00	0.008
336.00	0.005
337.00	0.006
338.00	0.000
339.00	0.004
340.00	0.011
341.00	0.017
342.00	0.024
343.00	0.002
344.00	0.009
345.00	0.000
346.00	0.003
347.00	0.013
348.00	0.006
349.00	0.003
350.00	0.004
351.00	0.008
352.00	-0.003
353.00	-0.013
354.00	0.006
355.00	-0.001
356.00	-0.002
357.00	0.005
358.00	-0.002
359.00	-0.006
360.00	-0.006
361.00	-0.019
362.00	-0.002
363.00	0.003
364.00	0.006
365.00	-0.006
366.00	-0.005
367.00	-0.002
368.00	-0.006
369.00	0.005
370.00	-0.008
371.00	0.002
372.00	0.009
373.00	0.006
374.00	0.000
375.00	0.002
376.00	0.006
377.00	0.003
378.00	-0.006
379.00	-0.004
380.00	0.014
381.00	0.011
382.00	-0.003
383.00	0.004
384.00	0.003
385.00	-0.008
386.00	0.003
387.00	0.008
388.00	-0.003
389.00	0.015
390.00	0.001
391.00	-0.004
392.00	0.002
393.00	-0.001
394.00	0.003
395.00	0.009
396.00	-0.004
397.00	0.013
398.00	0.002
399.00	-0.006
400.00	0.005
401.00	0.009
402.00	0.008
403.00	0.000
404.00	-0.008
405.00	0.005
406.00	0.000
407.00	0.000
408.00	0.004
409.00	-0.005
410.00	0.002
411.00	-0.009
412.00	-0.003
413.00	0.003
414.00	-0.007
415.00	-0.002
416.00	-0.011
417.00	0.001
418.00	0.001
419.00	0.002
420.00	-0.002
421.00	0.001
422.00	-0.002
423.00	0.000
424.00	-0.010
425.00	-0.007
426.00	0.008
427.00	-0.004
428.00	-0.001
429.00	-0.002
430.00	0.002
431.00	0.000
432.00	-0.002
433.00	-0.004
434.00	-0.010
435.00	-0.001
436.00	-0.004
437.00	-0.005
438.00	-0.004
439.00	-0.008
440.00	-0.004
441.00	-0.006
442.00	0.002
443.00	-0.001
444.00	-0.003
445.00	-0.016
446.00	0.001
447.00	-0.003
448.00	0.007
449.00	-0.002
450.00	-0.001
451.00	-0.009
452.00	-0.007
453.00	-0.001
454.00	-0.001
455.00	-0.003
456.00	0.004
457.00	-0.007
458.00	0.002
459.00	0.005
460.00	0.000
461.00	0.003
462.00	0.005
463.00	-0.004
464.00	0.002
465.00	-0.001
466.00	0.005
467.00	-0.001
468.00	0.005
469.00	-0.001
470.00	-0.001
471.00	-0.004
472.00	-0.008
473.00	-0.002
474.00	-0.004
475.00	0.003
476.00	-0.001
477.00	-0.010
478.00	-0.002
479.00	0.003
480.00	-0.003
481.00	-0.007
482.00	-0.007
483.00	-0.005
484.00	-0.008
485.00	0.005
486.00	0.003
487.00	-0.005
488.00	-0.005
489.00	-0.001
490.00	-0.006
491.00	0.000
492.00	-0.003
493.00	-0.006
494.00	0.003
495.00	0.002
496.00	0.006
497.00	0.004
498.00	0.001
499.00	0.002
500.00	0.001
501.00	0.002
502.00	0.001
503.00	0.000
504.00	0.002
505.00	-0.001
506.00	0.007
507.00	-0.004
508.00	0.004
509.00	-0.001
510.00	0.001
511.00	-0.004
512.00	0.003
513.00	0.000
514.00	-0.001
515.00	-0.002
516.00	-0.008
517.00	0.003
518.00	-0.004
519.00	-0.003
520.00	-0.001
521.00	-0.003
522.00	-0.002
523.00	-0.002
524.00	-0.002
525.00	-0.004
526.00	-0.003
527.00	-0.007
528.00	0.003
529.00	0.002
530.00	-0.006
531.00	-0.004
532.00	-0.008
533.00	-0.003
534.00	-0.005
535.00	-0.005
536.00	-0.002
537.00	-0.003
538.00	0.002
539.00	-0.014
540.00	-0.009
541.00	-0.009
542.00	-0.011
543.00	-0.004
544.00	-0.002
545.00	-0.002
546.00	-0.004
547.00	0.000
548.00	0.000
549.00	-0.002
550.00	0.004
551.00	-0.001
552.00	0.003
553.00	-0.002
554.00	0.002
555.00	-0.001
556.00	0.000
557.00	0.002
558.00	0.003
559.00	0.005
560.00	0.004
561.00	0.005
562.00	0.001
563.00	0.002
564.00	0.002
565.00	0.004
566.00	0.004
567.00	0.000
568.00	0.006
569.00	0.005
570.00	0.006
571.00	0.006
572.00	0.005
573.00	0.007
574.00	0.013
575.00	0.003
576.00	0.010
577.00	0.011
578.00	0.014
579.00	0.012
580.00	0.014
581.00	0.017
582.00	0.017
583.00	0.020
584.00	0.018
585.00	0.021
586.00	0.022
587.00	0.022
588.00	0.023
589.00	0.022
590.00	0.025
591.00	0.025
592.00	0.028
593.00	0.029
594.00	0.027
595.00	0.034
596.00	0.033
597.00	0.032
598.00	0.033
599.00	0.039
600.00	0.036
601.00	0.035
602.00	0.037
603.00	0.039
604.00	0.041
605.00	0.036
606.00	0.038
607.00	0.042
608.00	0.040
609.00	0.042
610.00	0.041
611.00	0.042
612.00	0.045
613.00	0.046
614.00	0.047
615.00	0.046
616.00	0.048
617.00	0.050
618.00	0.052
619.00	0.052
620.00	0.050
621.00	0.050
622.00	0.055
623.00	0.053
624.00	0.054
625.00	0.055
626.00	0.051
627.00	0.054
628.00	0.055
629.00	0.059
630.00	0.060
631.00	0.061
632.00	0.059
633.00	0.060
634.00	0.061
635.00	0.064
636.00	0.065
637.00	0.066
638.00	0.064
639.00	0.068
640.00	0.068
641.00	0.072
642.00	0.075
643.00	0.073
644.00	0.073
645.00	0.075
646.00	0.077
647.00	0.076
648.00	0.078
649.00	0.076
650.00	0.077
651.00	0.079
652.00	0.079
653.00	0.078
654.00	0.080
655.00	0.080
656.00	0.081
657.00	0.080
658.00	0.082
659.00	0.081
660.00	0.079
661.00	0.079
662.00	0.080
663.00	0.079
664.00	0.077
665.00	0.079
666.00	0.076
667.00	0.074
668.00	0.072
669.00	0.072
670.00	0.070
671.00	0.067
672.00	0.061
673.00	0.061
674.00	0.058
675.00	0.057
676.00	0.053
677.00	0.047
678.00	0.047
679.00	0.043
680.00	0.038
681.00	0.036
682.00	0.031
683.00	0.030
684.00	0.029
685.00	0.026
686.00	0.024
687.00	0.021
688.00	0.019
689.00	0.015
690.00	0.014
691.00	0.014
692.00	0.013
693.00	0.007
694.00	0.009
695.00	0.007
696.00	0.005
697.00	0.005
698.00	0.002
699.00	0.002
700.00	-0.004
701.00	0.000
702.00	0.002
703.00	-0.003
704.00	0.000
705.00	-0.002
706.00	-0.003
707.00	-0.001
708.00	-0.002
709.00	-0.002
710.00	-0.001
711.00	0.001
712.00	0.000
713.00	-0.004
714.00	-0.003
715.00	-0.003
716.00	-0.003
717.00	-0.002
718.00	-0.002
719.00	-0.004
720.00	-0.004
721.00	-0.004
722.00	-0.002
723.00	-0.002
724.00	-0.001
725.00	-0.002
726.00	0.000
727.00	-0.004
728.00	-0.002
729.00	-0.001
730.00	-0.003
731.00	0.001
732.00	-0.001
733.00	-0.003
734.00	-0.001
735.00	-0.001
736.00	-0.002
737.00	0.001
738.00	-0.001
739.00	0.001
740.00	-0.002
741.00	0.000
742.00	0.001
743.00	0.000
744.00	0.000
745.00	0.001
746.00	0.001
747.00	0.000
748.00	0.001
749.00	0.000
750.00	0.001
751.00	0.003
752.00	0.001
753.00	0.003
754.00	0.001
755.00	0.001
756.00	-0.001
757.00	0.000
758.00	-0.001
759.00	0.003
760.00	0.000
761.00	0.001
762.00	0.003
763.00	0.002
764.00	0.002
765.00	0.004
766.00	0.004
767.00	0.003
768.00	0.001
769.00	0.003
770.00	0.001
771.00	0.002
772.00	0.001
773.00	0.002
774.00	0.001
775.00	0.002
776.00	0.005
777.00	0.001
778.00	0.004
779.00	0.001
780.00	0.001
781.00	0.001
782.00	0.002
783.00	0.001
784.00	0.004
785.00	0.004
786.00	0.004
787.00	0.002
788.00	0.004
789.00	0.003
790.00	0.004
791.00	0.003
792.00	0.003
793.00	0.004
794.00	0.004
795.00	0.002
796.00	0.004
797.00	0.003
798.00	0.003
799.00	0.006
800.00	0.005
